this is the FWX joint values,the following info is time,x,y,theta,joint1,joint2,joint3,joint4,joint5,joint6,joint7
0.0 0.588957111494 -2.49607760271 0.0206379603948 0.0409040874455 0.777593619374 -0.444390625133 -1.21757791654 -1.31609645268 -1.93091650707 1.21216393484
0.216888366188 0.588885538727 -2.49215632787 0.021464953348 0.042558073352 0.777465110135 -0.444156305806 -1.21799576951 -1.31498903673 -1.92775211926 1.21208371533
0.385677454635 0.588815408048 -2.48823593576 0.0222920214869 0.0442122096297 0.777339819917 -0.443920776917 -1.21840771261 -1.31387923499 -1.9245857588 1.21200167729
0.530220003028 0.588746132239 -2.48431626826 0.0231191739038 0.0458665144634 0.777217919131 -0.443684104327 -1.2188145567 -1.31276735207 -1.92141749291 1.21191836029
0.658459592298 0.588679193214 -2.48039765753 0.0239463543431 0.047520875342 0.777098953955 -0.443446129439 -1.21921423703 -1.3116526468 -1.91824727971 1.21183243477
0.775689326621 0.588613707921 -2.47647987665 0.0247735818737 0.0491753304033 0.776983184616 -0.443206958005 -1.21960797099 -1.31053558627 -1.91507519961 1.21174470563
0.883932104059 0.588548791028 -2.47256270783 0.0256008766908 0.0508299200374 0.776870873772 -0.442966683759 -1.21999698708 -1.30941661998 -1.91190132946 1.21165598017
0.985875919113 0.588486225555 -2.46864652935 0.0264281698963 0.0524845064484 0.776761468939 -0.442725121477 -1.2203787971 -1.3082948596 -1.90872562224 1.21156466021
1.08189255832 0.588425124851 -2.4647311274 0.0272554822178 0.0541391310915 0.77665523511 -0.442482375328 -1.22075462585 -1.30717077332 -1.90554815362 1.21147155232
1.17323575574 0.58836460014 -2.46081629741 0.02808283548 0.0557938376158 0.77655244024 -0.442238536846 -1.22112570992 -1.30604481107 -1.90236899588 1.21137746625
1.26099407438 0.588306440682 -2.45690239043 0.0289101574271 0.05744848151 0.776452519752 -0.441993426007 -1.22148954598 -1.30491608482 -1.89918811167 1.21128080023
1.34531252397 0.588249756422 -2.45298920596 0.0297374704401 0.0591031075362 0.776355744248 -0.441747144996 -1.22184736702 -1.30378506365 -1.89600557205 1.21118236322
1.42714007072 0.588193655339 -2.44907655285 0.0305647979944 0.0607577626448 0.776262386642 -0.441499783224 -1.22220041707 -1.3026521979 -1.89282144466 1.21108296678
1.50654372915 0.588139932518 -2.44516475454 0.0313920644709 0.0624122955976 0.776171871104 -0.441251165936 -1.22254617893 -1.30151660031 -1.88963570174 1.21098100683
1.58359897848 0.588087694705 -2.44125362404 0.0322192939037 0.0640667544632 0.776084472882 -0.441001393283 -1.22288589267 -1.30037874034 -1.88644840976 1.2108772935
1.65837867315 0.588036046836 -2.43734298382 0.0330465114123 0.0657211894805 0.776000470806 -0.440750552116 -1.22322081062 -1.29923906852 -1.88325963183 1.21077264103
1.73167017927 0.587986789398 -2.43343312938 0.0338736380414 0.0673754427386 0.775919276057 -0.440498473807 -1.22354840018 -1.29809669883 -1.88006934959 1.21066544142
1.80350630078 0.587939026143 -2.4295238874 0.0347006994694 0.0690295655947 0.775841170274 -0.440245255863 -1.22386991016 -1.29695210102 -1.87687762496 1.21055650768
1.87391888299 0.587891859173 -2.42561509414 0.0355277224575 0.0706836115708 0.775766437286 -0.439990982518 -1.22418660014 -1.2958057253 -1.87368451662 1.21044665555
1.94293141529 0.587847093946 -2.42170701686 0.036354624735 0.0723374161259 0.775694476348 -0.43973549155 -1.22449592343 -1.29465668776 -1.87049001537 1.21033427452
2.01057449546 0.587803831429 -2.41779949607 0.0371814336226 0.0739910339012 0.775625574397 -0.439478877802 -1.22479913636 -1.29350545792 -1.8672941787 1.21022017915
2.07687783796 0.587761171103 -2.41389238203 0.0380081775162 0.0756445216884 0.775560020822 -0.439221222523 -1.22509750621 -1.2923524854 -1.8640970609 1.21010518712
2.14186400282 0.58772092296 -2.40998591341 0.0388347708565 0.0772977083689 0.775497202635 -0.438962370471 -1.22538847208 -1.29119688909 -1.86089866174 1.2099876853
2.20493086415 0.587682185393 -2.40607994476 0.0396612425994 0.0789506518546 0.775437412387 -0.438702413501 -1.22567329805 -1.29003913792 -1.85769903434 1.20986848995
2.26736747591 0.587644055478 -2.40217434045 0.0404876227688 0.0806034121935 0.775380945177 -0.438441429594 -1.22595325914 -1.28887968062 -1.85449822869 1.20974842076
2.32917681458 0.587608347299 -2.39826931033 0.0413138225453 0.0822558117464 0.775327175093 -0.438179271147 -1.22622577979 -1.28771763946 -1.85129625333 1.2096258614
2.39036724022 0.587574156891 -2.39436472311 0.0421398725126 0.0839079116811 0.775276400761 -0.437916026669 -1.22649213215 -1.28655348253 -1.84809315708 1.20950163022
2.45094682824 0.587540579145 -2.39046045745 0.0429658043158 0.0855597752875 0.775228922746 -0.437651770679 -1.2267535986 -1.28538765722 -1.84488898572 1.20937654849
2.51091890257 0.587509431783 -2.38655669408 0.043791525903 0.0872112184618 0.775184103191 -0.437386363494 -1.22700759019 -1.28421929008 -1.84168375629 1.20924899794
2.57029133347 0.587479808708 -2.38265331606 0.044617069479 0.0888623056139 0.775142246 -0.437119890202 -1.22725538619 -1.28304884783 -1.83847751343 1.209119798
2.6290717233 0.587450802842 -2.37875021646 0.0454424683017 0.0905131032593 0.775103657349 -0.436852421574 -1.22749827639 -1.28187677623 -1.83527029879 1.20898977158
2.68726372252 0.587424235096 -2.37484754666 0.0462676271178 0.0921634208915 0.775067687189 -0.436583826411 -1.22773365839 -1.28070220674 -1.83206213771 1.20885729831
2.74487473253 0.587399197459 -2.3709452042 0.0470925797445 0.093813326145 0.775034644939 -0.436314186067 -1.22796281874 -1.27952560443 -1.82885307071 1.20872319887
2.80191189937 0.587374781114 -2.36704309669 0.0479173610435 0.0954628887429 0.775004842591 -0.436043567271 -1.2281870547 -1.27834741303 -1.82564313541 1.20858829791
2.85837917911 0.587352809696 -2.36314134595 0.0487418725923 0.0971119118404 0.774977617604 -0.435771847872 -1.22840375037 -1.27716676963 -1.8224323652 1.20845097277
2.91428352521 0.587332373508 -2.35923986411 0.0495661498109 0.0987604662777 0.774953285185 -0.435499105179 -1.22861419974 -1.27598413729 -1.81922079658 1.20831204555
2.96963164834 0.587312562222 -2.35533857348 0.0503902291557 0.100408624967 0.774932162992 -0.435225401656 -1.22881970724 -1.27479995735 -1.81600846322 1.20817234239
3.02442779342 0.587295201733 -2.35143756607 0.0512140090679 0.102056184792 0.774913576053 -0.43495062469 -1.2290176438 -1.27361337324 -1.81279540634 1.2080302385
3.07814134516 0.587279380886 -2.34753676875 0.0520375265609 0.103703219778 0.774897845367 -0.434674847283 -1.2292093107 -1.27242484561 -1.80958165851 1.20788655733
3.13238998317 0.587264188072 -2.34363611862 0.0528608196754 0.105349806007 0.774885294496 -0.43439812733 -1.22939601969 -1.27123481311 -1.80636724955 1.20774212666
3.18717817006 0.587251450978 -2.33973567774 0.0536837837507 0.106995734157 0.77487523563 -0.434120362349 -1.22957512833 -1.27004242615 -1.80315222824 1.2075953192
3.2425120974 0.587240257221 -2.3358353878 0.0545064573831 0.108641081422 0.774867995821 -0.433841620719 -1.22974794534 -1.26884814265 -1.79993662333 1.20744695995
3.29839788977 0.587229694144 -2.3319352008 0.055328880187 0.11028592703 0.774863904381 -0.433561955554 -1.22991578951 -1.26765239817 -1.79672046089 1.20729787811
3.35484058328 0.587221590754 -2.32803514868 0.0561509444352 0.111930055526 0.774862261082 -0.433281274887 -1.23007600572 -1.26645435083 -1.79350379702 1.2071464444
3.41184636951 0.587215033675 -2.32413518806 0.0569726902958 0.113573547248 0.774863398806 -0.432999642276 -1.23022990976 -1.26525445545 -1.79028665673 1.20699348503
3.45502760751 0.587210590494 -2.32121026147 0.0575887917831 0.114805750222 0.774866588927 -0.432787739992 -1.23034159767 -1.26435347195 -1.78787346102 1.20687824391
3.49820831384 0.587207532536 -2.31828537084 0.0582046759324 0.116037518521 0.774871132327 -0.432575283154 -1.23044898113 -1.26345122242 -1.78546004207 1.20676169365
3.54138867689 0.587205345524 -2.3153605032 0.0588203673931 0.117268901442 0.77487722082 -0.432362302891 -1.23055280494 -1.26254795721 -1.78304640751 1.20664429836
3.58456883062 0.587204029754 -2.31243565005 0.0594358621646 0.118499890985 0.774884848742 -0.432148801823 -1.230653067 -1.26164368189 -1.78063257266 1.20652606227
3.62774889226 0.587202971097 -2.30951080297 0.0600511916873 0.11973055003 0.774894361179 -0.431934776697 -1.23075078124 -1.26073868951 -1.77821853793 1.20640766687
3.67092899995 0.587203298449 -2.30658595255 0.060666286886 0.120960740428 0.774904975691 -0.431720277323 -1.23084394139 -1.25983244676 -1.77580434767 1.20628772588
3.71410929183 0.587204497851 -2.30366109012 0.0612811741442 0.122190514944 0.77491722598 -0.431505237778 -1.23093365002 -1.25892522419 -1.77338999854 1.20616708081
3.75728986001 0.587206569331 -2.30073620856 0.0618958491389 0.123419864934 0.77493099342 -0.431289691653 -1.23101978758 -1.25801701937 -1.77097550903 1.20604561074
3.80047070031 0.587208998639 -2.29781130879 0.0625103384515 0.124648843559 0.774946588013 -0.431073628519 -1.23110322542 -1.25710807832 -1.76856088019 1.20592390828
3.84365221878 0.587212814515 -2.29488636303 0.0631245769328 0.125877320521 0.774963258487 -0.430857111314 -1.23118209565 -1.25619792056 -1.76614615732 1.20580067411
3.88683441125 0.587217502971 -2.29196137166 0.0637385919752 0.127105350606 0.774981542086 -0.430640068407 -1.23125750544 -1.25528681177 -1.76373133559 1.20567675188
3.93001738238 0.587223063901 -2.28903632736 0.0643523792228 0.128332925102 0.775001319898 -0.430422534378 -1.23132933503 -1.25437475052 -1.76131643332 1.20555202012
3.97320099819 0.587228983084 -2.28611123981 0.0649659661582 0.129560098972 0.775022905723 -0.430204494516 -1.23139846011 -1.2534619794 -1.75890144982 1.20542707314
4.01638592014 0.587236288836 -2.28318606351 0.0655792858486 0.130786738353 0.775045540816 -0.42998602153 -1.23146300489 -1.25254802644 -1.75648643348 1.20530060843
4.05957201007 0.587244467285 -2.28026080793 0.0661923666696 0.132012899995 0.775069766077 -0.429767037659 -1.23152408131 -1.25163315188 -1.75407137812 1.20517347209
4.1027593852 0.587253518193 -2.27733546557 0.0668052042405 0.133238575137 0.775095462283 -0.429547578565 -1.23158156932 -1.25071735542 -1.75165630182 1.20504554201
4.14594776923 0.587262927497 -2.27441005487 0.0674178269318 0.134463820519 0.77512294691 -0.429327625073 -1.23163634881 -1.24980087592 -1.74924120231 1.20491741407
4.18913809152 0.587273722817 -2.27148451259 0.0680301660537 0.135688498763 0.775151453641 -0.429107260091 -1.23168653603 -1.24888325043 -1.7468261308 1.20478778237
4.23233008415 0.587285390538 -2.26855885732 0.0686422509571 0.13691266857 0.775181527372 -0.428886399405 -1.23173324804 -1.2479647335 -1.7444110799 1.20465749589
4.27552386016 0.587297930284 -2.26563308138 0.0692540772395 0.138136321135 0.775213048898 -0.428665079682 -1.23177636483 -1.24704532599 -1.74199606744 1.2045264322
4.31871901346 0.587310828293 -2.262707212 0.0698656741485 0.139359514953 0.775246338489 -0.428443277399 -1.23181676946 -1.24612526278 -1.73958108959 1.20439518783
4.36191674552 0.587325111208 -2.25978116816 0.0704769712616 0.140582109179 0.775280622956 -0.428221085783 -1.23185257112 -1.24520409039 -1.73716620027 1.20426245411
4.40511664192 0.587340265813 -2.25685497761 0.0710879988952 0.141804164446 0.775316450921 -0.427998414026 -1.23188489165 -1.24428205741 -1.73475139093 1.20412908271
4.44831881985 0.587356291593 -2.25392863249 0.0716987526251 0.143025671906 0.775353702583 -0.427775300024 -1.2319136104 -1.24335916584 -1.73233667914 1.20399495014
4.49152274766 0.587372675223 -2.25100216883 0.0723092625711 0.144246691798 0.775392701995 -0.427551715451 -1.23193961457 -1.24243564644 -1.7299220596 1.2038606547
4.53472988219 0.587390442093 -2.24807548782 0.0729194565991 0.145467079854 0.775432668788 -0.427327764266 -1.23196100612 -1.24151105562 -1.72750758874 1.20372488451
4.5779396834 0.587409079527 -2.24514862639 0.0735293659813 0.146686898618 0.775474155104 -0.427103348921 -1.23197891137 -1.24058563569 -1.72509325695 1.20358849375
4.62115226433 0.587428586871 -2.2422215765 0.0741389862761 0.147906139208 0.775517041149 -0.426878508378 -1.23199320968 -1.23965938986 -1.72267908154 1.20345135855
4.66436696771 0.587448451373 -2.239294383 0.0747483484644 0.149124863585 0.775561654028 -0.426653209593 -1.23200479155 -1.23873254453 -1.7202650558 1.20331407818
4.70758550995 0.587469696893 -2.23636692929 0.075357378724 0.150342924104 0.775607206583 -0.426427567442 -1.23201175222 -1.23780466642 -1.71785123849 1.20317533783
4.75080721704 0.587491811439 -2.23343926147 0.0759661092745 0.151560385205 0.775654254517 -0.426201477421 -1.23201522251 -1.23687599131 -1.71543761906 1.20303599438
4.79403220201 0.587514794212 -2.23051137135 0.0765745356573 0.152777237971 0.775702677666 -0.425974979704 -1.23201508136 -1.23594652363 -1.7130242145 1.20289592305
4.83725967784 0.587538133174 -2.22758331257 0.0771826897072 0.15399354607 0.775752806542 -0.425748036276 -1.23201222286 -1.23501648525 -1.7106110168 1.20275572454
4.88049162884 0.587562850378 -2.22465495079 0.0777904959372 0.15520915853 0.775803847365 -0.425520773172 -1.23200473588 -1.23408545359 -1.70819808684 1.20261408119
4.92372723449 0.587588434657 -2.22172634128 0.078397987502 0.15642414166 0.775856358732 -0.425293078953 -1.23199375496 -1.23315365762 -1.70578541325 1.20247185187
4.96696662457 0.587614885067 -2.21879747567 0.0790051599316 0.157638486519 0.775910220854 -0.425064994785 -1.23197915939 -1.23222110304 -1.70337301269 1.20232891176
5.01020886971 0.58764169042 -2.21586841644 0.0796120459041 0.158852258464 0.775965767233 -0.424836477684 -1.23196184633 -1.23128800697 -1.70096087589 1.2021858625
5.05345622216 0.587669870687 -2.21293901148 0.0802185682895 0.160065303235 0.776022197415 -0.424607665149 -1.23193989837 -1.23035395791 -1.69854906572 1.20204138339
5.09670772324 0.587698915667 -2.21000932526 0.0808247611722 0.161277689 0.77608007351 -0.424378438407 -1.23191445435 -1.22941917781 -1.69613757004 1.20189633613
5.13996350693 0.587728824272 -2.20707934925 0.0814306200694 0.162489406795 0.776139275513 -0.424148839834 -1.23188539331 -1.22848367362 -1.69372640519 1.20175059508
5.18322251407 0.587759086297 -2.20414915472 0.0820361784944 0.163700523645 0.776200139966 -0.423918821339 -1.23185361541 -1.22754765757 -1.6913155607 1.20160476297
5.22648725228 0.587790719359 -2.20121857185 0.0826413576982 0.164910882052 0.776261860127 -0.423688532019 -1.23181719755 -1.22661072959 -1.68890510126 1.20145751635
5.2697566373 0.587823214365 -2.1982876743 0.0832461926826 0.166120552021 0.776325001009 -0.423457845797 -1.23177728216 -1.22567310435 -1.68649501407 1.20130971911
5.3130307989 0.587856570079 -2.19535645338 0.0838506789567 0.167329524569 0.776389442856 -0.423226806123 -1.23173374848 -1.22473479009 -1.6840853151 1.20116124535
5.35630855236 0.587890277416 -2.19242498915 0.0844548508595 0.168537868375 0.776455525099 -0.422995359725 -1.23168749944 -1.22379599396 -1.68167599277 1.20101269872
5.39959266483 0.58792535137 -2.18949309412 0.0850586280449 0.169745422746 0.776522434777 -0.422763667536 -1.23163660647 -1.22285632768 -1.67926711343 1.20086275294
5.44288191391 0.587961284092 -2.18656085113 0.0856620464249 0.170952259506 0.776590739959 -0.422531595944 -1.2315822157 -1.22191599839 -1.67685866369 1.20071227441
5.48617642937 0.587998074198 -2.18362825132 0.0862651014997 0.172158369655 0.776660320746 -0.422299189632 -1.23152420613 -1.22097501568 -1.67445065915 1.20056113642
5.5294749009 0.58803521386 -2.18069538352 0.086867828427 0.17336382351 0.776731519727 -0.422066389939 -1.23146348366 -1.22003358144 -1.6720430872 1.20040994395
5.57278035938 0.588073715175 -2.17776204265 0.0874701452847 0.174568457225 0.776803517648 -0.421833369904 -1.23139811435 -1.21909131949 -1.66963601564 1.20025736762
5.61609144427 0.588113071685 -2.17482832069 0.0880720888891 0.175772344434 0.776876885983 -0.421599988079 -1.2313292483 -1.21814842923 -1.66722943062 1.20010427687
5.65940828534 0.588153281849 -2.17189420864 0.0886736547287 0.176975476113 0.776951504097 -0.421366290629 -1.23125676366 -1.2172049216 -1.66482334734 1.19995054346
5.70272944669 0.588193839235 -2.16895980405 0.0892748787741 0.178177924204 0.777027718068 -0.421132213264 -1.23118156953 -1.21626099311 -1.66241775222 1.19979677409
5.74605821039 0.588235752776 -2.16602488433 0.0898756775507 0.179379521757 0.777104702717 -0.420897941224 -1.23110172717 -1.21531627996 -1.66001271437 1.1996416366
5.78939309029 0.588278517535 -2.16308955057 0.0904760887634 0.180580344183 0.777183031807 -0.420663325486 -1.23101838941 -1.21437097363 -1.65760821954 1.19948600225
5.83273421617 0.588322131824 -2.16015379364 0.0910761078999 0.181780382456 0.777262585329 -0.420428413204 -1.23093143494 -1.2134250864 -1.65520428255 1.19932974281
5.87608002234 0.588366090733 -2.15721771977 0.0916757717287 0.182979710113 0.777343711922 -0.420193134707 -1.230841775 -1.21247880926 -1.65280088887 1.19917346571
5.91943405044 0.588411399767 -2.15428108896 0.092274995245 0.184178157146 0.777425580653 -0.419957687585 -1.23074746643 -1.21153179108 -1.65039810881 1.19901583602
5.96279467199 0.588457555653 -2.15134401137 0.0928738170381 0.185375800732 0.77750876811 -0.419721914885 -1.23064966524 -1.2105842152 -1.64799592778 1.19885772755
6.00616202931 0.588504556549 -2.14840647773 0.0934722325911 0.186572631838 0.777593154217 -0.419485865035 -1.23054824996 -1.2096360953 -1.64559436019 1.19869901127
6.04953441858 0.5885518992 -2.14546860294 0.0940702794647 0.187768725585 0.777679090512 -0.419249462757 -1.23044413419 -1.20868761671 -1.64319339067 1.19854029572
6.09291564935 0.588600585423 -2.14253012965 0.0946678711455 0.188963908947 0.777765740454 -0.419012918134 -1.2303353707 -1.20773844119 -1.64079309052 1.19838024327
6.1363039508 0.588650113741 -2.13959117709 0.0952650470962 0.190158260848 0.777853683 -0.418776066324 -1.23022311811 -1.20678874381 -1.63839344493 1.19821972985
6.17969946946 0.588700482161 -2.13665173583 0.0958618028007 0.191351772257 0.777942798588 -0.418538956809 -1.23010725539 -1.2058385396 -1.63599446787 1.19805862626
6.22310038009 0.588751189214 -2.1337119294 0.0964581766001 0.192544519856 0.778033441179 -0.418301508813 -1.2299886979 -1.20488800816 -1.63359614319 1.19789754164
6.26651073504 0.588803232767 -2.13077148322 0.0970540804956 0.193736327647 0.778124768956 -0.418063944956 -1.22986549489 -1.20393682436 -1.63119854306 1.1977351359
6.30992863792 0.588856113278 -2.12783052552 0.0976495548151 0.194927276286 0.778217363257 -0.417826092371 -1.22973880751 -1.20298515482 -1.6288016525 1.19757228722
6.35335423943 0.588909828597 -2.12488904674 0.0982445950405 0.196117356737 0.778311104451 -0.417588001855 -1.22960851453 -1.20203301598 -1.62640548504 1.19740886548
6.39678558037 0.588963879171 -2.12194717896 0.0988392402894 0.197306647235 0.778406349506 -0.41734958681 -1.22947553359 -1.20108058155 -1.62401002381 1.19724548119
6.44022696847 0.589019258666 -2.11900463052 0.0994334010969 0.19849496885 0.778502251236 -0.417111082595 -1.22933791052 -1.20012753973 -1.6216153417 1.19708079152
6.48367638592 0.589075469602 -2.11606153859 0.100027118649 0.199682403953 0.778599393306 -0.416872308222 -1.22919680885 -1.19917404854 -1.61922142363 1.19691567695
6.52713396668 0.589132509675 -2.11311789349 0.100620388425 0.200868943505 0.778697655995 -0.416633315831 -1.2290521071 -1.19822012586 -1.61682828269 1.19675000638
6.57059763853 0.589189881376 -2.11017383577 0.101213250312 0.202054667279 0.778797399309 -0.416394012905 -1.22890472513 -1.19726593939 -1.61443590135 1.19658439177
6.61407195617 0.589248573917 -2.10722905685 0.101805613399 0.203239393455 0.778897770786 -0.416154647663 -1.22875270565 -1.19631119084 -1.61204435305 1.19641748753
6.65755476785 0.58930809201 -2.10428370277 0.102397519721 0.204423206097 0.778999356115 -0.415915031012 -1.22859721415 -1.19535602953 -1.60965362273 1.19625017616
