this is the FWX joint values,the following info is time,x,y,theta,joint1,joint2,joint3,joint4,joint5,joint6,joint7
0.0 2.57765367058 0.141898572369 -2.28319549018 -2.7098316564 1.18844592081 -2.6344239113 -1.69692038368 0.975054647838 0.871866229444 -0.184793374289
0.0717995557496 2.57319017679 0.141942919275 -2.28360130239 -2.71064328081 1.18740927357 -2.63272058186 -1.69647481412 0.97636346673 0.870380917851 -0.185078314771
0.12719849354 2.56872633644 0.141986971224 -2.28400762252 -2.71145592107 1.18637279783 -2.63101666008 -1.69602350981 0.977670556945 0.868899257855 -0.185363169685
0.174306639001 2.56426214901 0.142030728124 -2.28441445149 -2.71226957902 1.18533651171 -2.62931215477 -1.69556648741 0.978975912767 0.867421252695 -0.185647935923
0.21632227088 2.55979761438 0.142074189648 -2.2848217907 -2.71308425743 1.18430043298 -2.62760707524 -1.6951037633 0.980279527189 0.865946905982 -0.185932610936
0.2547418257 2.55533273242 0.142117355398 -2.28522964152 -2.71389995906 1.18326457932 -2.62590143093 -1.69463535409 0.981581393504 0.864476221154 -0.186217191863
0.28545908842 2.55150545626 0.142154461863 -2.28557961317 -2.71459990237 1.1823774658 -2.62443904491 -1.69423019463 0.98269638497 0.863218199147 -0.186460321784
0.314398577277 2.54767785785 0.142190998617 -2.28593001849 -2.71530071301 1.18148999142 -2.62297613586 -1.69381958999 0.983809381071 0.861963509581 -0.186704222579
0.34193533205 2.54385000577 0.142227297214 -2.28628080256 -2.71600228115 1.18060270071 -2.62151288147 -1.69340490843 0.984921155775 0.860711472637 -0.186947935777
0.368399377673 2.54002189833 0.142263377282 -2.28663196617 -2.71670460837 1.17971562178 -2.62004923729 -1.69298609407 0.986031628734 0.859462134977 -0.187191572853
0.393832500955 2.53619353548 0.142299238575 -2.28698351016 -2.71740769635 1.17882876571 -2.61858520916 -1.69256315734 0.98714079569 0.858215498734 -0.187435132374
0.418519288995 2.53236491711 0.142334880787 -2.28733543533 -2.71811154669 1.17794214346 -2.61712080299 -1.69213610886 0.988248652697 0.856971565931 -0.187678612605
0.442481641563 2.52853604314 0.142370303614 -2.28768774247 -2.71881616098 1.177055766 -2.61565602466 -1.69170495927 0.98935519581 0.855730338593 -0.187922011885
0.465740404142 2.52470698151 0.142405903925 -2.28804036972 -2.71952141546 1.17617022292 -2.6141909322 -1.69127096192 0.99046106626 0.854491203829 -0.188164602023
0.488317027949 2.52087759811 0.142440922438 -2.28839344084 -2.72022755771 1.17528441492 -2.61272539054 -1.69083165707 0.991564941505 0.853255397806 -0.188407884372
0.510450276314 2.51704795969 0.142475706247 -2.2887468957 -2.72093446743 1.17439887161 -2.61125953004 -1.69038833108 0.992667548637 0.852022269897 -0.188650998116
0.532148863396 2.51321806521 0.142510269434 -2.28910073555 -2.72164214712 1.17351361668 -2.60979332064 -1.6899409466 0.993768826587 0.850791855352 -0.188894024424
0.553421324443 2.50938791458 0.14254461166 -2.28945496114 -2.72235059831 1.17262866099 -2.60832676823 -1.68948951438 0.994868771565 0.849564156077 -0.189136961713
0.574276029853 2.5055575077 0.142578732638 -2.28980957322 -2.72305982246 1.1717440154 -2.60685987848 -1.68903404495 0.995967379625 0.848339174113 -0.189379808742
0.594721182613 2.50172684445 0.142612631926 -2.29016457248 -2.72376982099 1.1708596906 -2.60539265746 -1.6885745494 0.997064647497 0.847116911118 -0.189622563389
0.614764489879 2.49789598926 0.142646685604 -2.29051989585 -2.72448046772 1.16997621876 -2.60392515793 -1.68811219351 0.998161198331 0.845896778461 -0.189864536394
0.63441451757 2.49406481197 0.142680155348 -2.29087567278 -2.72519202159 1.16909258516 -2.60245725574 -1.6876446338 0.999255715964 0.84467999313 -0.190107183676
0.653487915659 2.49023337851 0.142713388219 -2.29123183787 -2.72590435178 1.16820929157 -2.60098907429 -1.68717312762 1.00034894119 0.843465898448 -0.190349651693
0.672373733796 2.48640168817 0.142746397988 -2.29158839289 -2.72661746181 1.16732636172 -2.59952058461 -1.68669763846 1.00144081184 0.8422545302 -0.190592021432
0.691073818581 2.48256974082 0.14277918427 -2.29194533851 -2.72733135306 1.16644380627 -2.59805179254 -1.68621817719 1.00253132441 0.841045890145 -0.190834291373
0.709589994887 2.47873753634 0.14281174668 -2.29230267539 -2.72804602681 1.16556163588 -2.59658270386 -1.6857347547 1.00362047548 0.839839980061 -0.191076460038
0.727924074811 2.47490507458 0.142844084831 -2.29266040416 -2.72876148435 1.16467986116 -2.59511332432 -1.68524738188 1.00470826163 0.838636801704 -0.191318525962
0.746077543298 2.47107241987 0.142876574262 -2.29301845781 -2.72947759165 1.16379898713 -2.5936437027 -1.68475719697 1.00579531664 0.8374357619 -0.191559806145
0.764052787509 2.46723944249 0.142908477187 -2.29337697396 -2.73019462394 1.16291805282 -2.59217372413 -1.68426191313 1.00688030326 0.83623808662 -0.191801743111
0.781851254053 2.46340620767 0.142940140751 -2.29373588217 -2.73091244037 1.16203753264 -2.59070350563 -1.68376275857 1.00796397525 0.835043113468 -0.192043490527
0.799474683461 2.45957271496 0.142971578406 -2.29409518469 -2.7316310454 1.1611574503 -2.58923301933 -1.68325969762 1.00904626942 0.833850878778 -0.192285129142
0.816924798374 2.45573896421 0.143002789759 -2.29445488211 -2.73235044026 1.16027781634 -2.58776227093 -1.68275274115 1.01012718239 0.832661384269 -0.192526657721
0.834203303541 2.45190495526 0.143033774354 -2.29481497502 -2.73307062607 1.1593986412 -2.58629126626 -1.6822419003 1.01120671117 0.831474631496 -0.192768074643
0.851311887099 2.44807068796 0.143064531757 -2.29517546396 -2.73379160394 1.15851993531 -2.58482001104 -1.68172718612 1.01228485268 0.830290622062 -0.193009378462
0.868251936872 2.44423622657 0.143095437155 -2.29553627818 -2.7345132324 1.15764217709 -2.58334855031 -1.68120970889 1.01336225021 0.829108758884 -0.193249892994
0.885025677725 2.44040144172 0.143125753073 -2.29589756308 -2.73523580218 1.15676445838 -2.58187677759 -1.68068723874 1.01443754702 0.827930276045 -0.193491047102
0.901634462978 2.43656639796 0.143155826869 -2.29625924338 -2.7359591628 1.15588722667 -2.58040480404 -1.68016097458 1.01551150907 0.826754505787 -0.193732001672
0.918079915594 2.43273109511 0.143185671732 -2.29662132182 -2.73668331968 1.15501050574 -2.57893260271 -1.67963088132 1.01658407184 0.825581485212 -0.193972837641
0.934363643199 2.42889553302 0.143215287152 -2.29698379891 -2.73740827385 1.15413430587 -2.57746017947 -1.67909697025 1.01765523262 0.824411215692 -0.194213553328
0.950487235531 2.42505971149 0.14324467267 -2.29734667513 -2.73813402628 1.15325863736 -2.57598754 -1.67855925252 1.01872498856 0.823243698731 -0.194454147357
0.966294199397 2.42122363032 0.14327382782 -2.29770995095 -2.73886057794 1.15238351046 -2.57451469001 -1.67801773929 1.01979333687 0.822078935799 -0.194694618325
0.982101968354 2.4173873538 0.14330312751 -2.2980735521 -2.73958778023 1.15150937746 -2.57304167129 -1.67747351284 1.02086092972 0.82091632629 -0.194934296851
0.997911075297 2.41355075276 0.143331834407 -2.29843763129 -2.74031593861 1.150635382 -2.57156838481 -1.67692440041 1.02192639236 0.819757111596 -0.195174597984
1.01372125442 2.40971389116 0.143360296234 -2.2988021087 -2.74104489343 1.14976194526 -2.57009493627 -1.67637157134 1.0229905019 0.818600619082 -0.195414690161
1.02953250827 2.40587676909 0.143388525812 -2.29916698749 -2.74177465102 1.14888909093 -2.56862129987 -1.6758149915 1.02405319302 0.81744688638 -0.195654653885
1.04534483558 2.40203938637 0.143416522602 -2.29953226809 -2.74250521221 1.14801682914 -2.56714748142 -1.67525467228 1.02511446331 0.816295914729 -0.195894487513
1.06115823762 2.39820174276 0.143444286141 -2.2998979509 -2.74323657783 1.14714517001 -2.56567348652 -1.67469062484 1.02617431008 0.815147705576 -0.19613418987
1.07697271568 2.39436383805 0.143471815893 -2.30026403631 -2.74396874865 1.14627412359 -2.56419932094 -1.67412286058 1.02723273105 0.81400226014 -0.196373759331
1.09278800521 2.39052573657 0.143499486596 -2.3006304467 -2.74470156942 1.14540411653 -2.56272502362 -1.6735524336 1.02829038634 0.812858974795 -0.196612533582
1.10860463657 2.38668730925 0.14352656091 -2.3009973417 -2.74543535943 1.14453434332 -2.56125050203 -1.67297722838 1.02934588472 0.811719097439 -0.19685191367
1.12442234904 2.38284861953 0.143553387027 -2.30136463718 -2.74616995039 1.1436651993 -2.55977585695 -1.67239838457 1.03040001362 0.810581950944 -0.197091075706
1.14024114264 2.37900966775 0.143579977348 -2.30173233669 -2.7469053494 1.14279670806 -2.55830106377 -1.67181586916 1.0314527072 0.809447573354 -0.197330099427
1.15606101609 2.3751704537 0.143606331409 -2.30210044059 -2.74764155722 1.14192887963 -2.55682612804 -1.67122969327 1.03250396281 0.808315966075 -0.197568983878
1.17188197066 2.37133097713 0.143632448648 -2.30246894921 -2.74837857444 1.14106172389 -2.55535105552 -1.67063986841 1.03355377846 0.807187130199 -0.197807727425
1.1877040089 2.36749123778 0.143658328537 -2.30283786283 -2.74911640169 1.14019525073 -2.55387585185 -1.67004640597 1.03460215199 0.806061066907 -0.198046328668
1.20352686374 2.36365130009 0.14368434565 -2.30320710069 -2.7498548774 1.13932986159 -2.55240055367 -1.66945033201 1.03564975103 0.8049371698 -0.198284132101
1.21935106807 2.35981103498 0.143709762559 -2.30357682893 -2.75059433389 1.13846480085 -2.55092507406 -1.66884958815 1.03669516924 0.803816692593 -0.198522524786
1.23517636247 2.35597050543 0.143734927957 -2.30394695934 -2.7513345947 1.13760043852 -2.54944950939 -1.66824528449 1.0377392037 0.802698953893 -0.198760690299
1.25100274437 2.35212971202 0.143759853935 -2.30431749585 -2.75207566773 1.13673679814 -2.547973836 -1.66763738872 1.03878178757 0.801583992506 -0.198998708332
1.26683021379 2.34828865453 0.143784539947 -2.30468843874 -2.75281755352 1.13587388948 -2.54649805955 -1.66702591224 1.03982291879 0.800471809531 -0.199236577563
1.28265877328 2.34444733266 0.143808985451 -2.30505978825 -2.75356025253 1.1350117223 -2.54502218568 -1.66641086652 1.04086259547 0.799362406036 -0.19947429661
1.29848842156 2.34060574613 0.143833189919 -2.30543154459 -2.75430376522 1.13415030632 -2.54354621997 -1.66579226294 1.04190081563 0.798255783134 -0.199711864228
1.31431889538 2.33676395956 0.143857527792 -2.30580362404 -2.75504792412 1.13329001824 -2.54207019719 -1.66517109963 1.0429382538 0.797151331993 -0.19994863167
1.33015072635 2.33292184371 0.143881261471 -2.30617619884 -2.75579307371 1.13243015135 -2.54059403517 -1.66454537523 1.04397348995 0.796050311392 -0.200185971873
1.34598365634 2.32907946116 0.143904740233 -2.30654917691 -2.75653902986 1.13157105082 -2.53911782632 -1.66391617026 1.04500732996 0.794952036073 -0.200423076065
1.36181768151 2.32523681277 0.143927975785 -2.30692256257 -2.75728580117 1.13071274008 -2.53764154804 -1.66328345331 1.04603970633 0.793856545422 -0.200660023442
1.37765280313 2.32139389827 0.143950967621 -2.30729635602 -2.75803338807 1.12985522879 -2.53616520585 -1.66264723567 1.04707061702 0.792763840583 -0.200896813059
1.39348902249 2.31755071734 0.143973715133 -2.30767055738 -2.7587817908 1.12899852644 -2.53468880548 -1.66200752905 1.04810006071 0.79167392232 -0.201133443194
1.40932634087 2.31370726966 0.143996217801 -2.30804516682 -2.75953100967 1.12814264259 -2.53321235245 -1.66136434483 1.04912803558 0.790586791682 -0.201369912747
1.42516449117 2.3098636201 0.144018850003 -2.30842009784 -2.76028087171 1.12728792976 -2.53173587996 -1.66071865309 1.05015522216 0.789501837916 -0.201605580074
1.44100400757 2.3060196391 0.144040873874 -2.30879552835 -2.76103173274 1.12643372905 -2.53025930986 -1.66006850949 1.05118018837 0.788420323981 -0.201841803551
1.45684463193 2.30217538899 0.144062639365 -2.30917136269 -2.7617834014 1.12558036142 -2.52878273098 -1.65941496486 1.05220374784 0.787341561246 -0.202077782424
1.4726863617 2.29833087085 0.144084157818 -2.30954760551 -2.76253588704 1.12472785017 -2.52730612169 -1.65875798864 1.05322583241 0.786265589755 -0.202313595521
1.48852919687 2.29448608435 0.144105428665 -2.30992425691 -2.76328918985 1.12387620469 -2.52582948762 -1.65809759234 1.05424644058 0.785192410351 -0.20254924155
1.50437314 2.29064102917 0.144126451347 -2.31030131697 -2.76404330996 1.12302543438 -2.52435283433 -1.6574337875 1.05526557099 0.784122023858 -0.202784719193
1.52021819108 2.28679570497 0.144147225314 -2.31067878573 -2.76479824749 1.12217554857 -2.52287616737 -1.65676658563 1.05628322225 0.783054431115 -0.203020027198
1.53606408177 2.28295017689 0.144168124891 -2.31105657416 -2.76555382435 1.12132687605 -2.52139951878 -1.65609692893 1.05730008021 0.781989019797 -0.203254531023
1.55191134877 2.27910431497 0.144188411941 -2.31143486542 -2.76631040687 1.12047880478 -2.51992281367 -1.65542292974 1.05831470209 0.780927056368 -0.203489574468
1.56775973524 2.27525818131 0.144208437077 -2.31181356047 -2.76706779696 1.11963163197 -2.51844613772 -1.65474560943 1.0593279087 0.779867849029 -0.203724364591
1.58360923606 2.27141177723 0.144228211302 -2.31219266431 -2.76782600465 1.11878538079 -2.51696947024 -1.65406493817 1.06033963105 0.778811438604 -0.20395898005
1.5994598525 2.26756510238 0.144247734027 -2.31257217696 -2.76858502995 1.11794006045 -2.51549281686 -1.65338092758 1.06134986804 0.77775782574 -0.204193419427
1.61531158585 2.2637181564 0.144267004686 -2.31295209839 -2.7693448728 1.11709568012 -2.51401618314 -1.65269358923 1.0623586186 0.776707011112 -0.204427681378
1.63116443865 2.25987093892 0.144286022745 -2.31333242857 -2.77010553318 1.11625224898 -2.51253957457 -1.65200293459 1.0633658815 0.775658995496 -0.204661764788
1.64701814 2.25602351544 0.144305162467 -2.31371307613 -2.77086682828 1.11541007256 -2.51106302238 -1.65130987817 1.06437234736 0.774613165308 -0.204895042182
1.6628732279 2.25217575546 0.144323685446 -2.31409422903 -2.7716291341 1.11456858468 -2.50958645422 -1.65061258862 1.06537656403 0.773570789808 -0.20512884266
1.67872944676 2.24832772095 0.144341942986 -2.31447578515 -2.77239224632 1.11372805932 -2.50810995302 -1.64991205797 1.06637935863 0.772531174425 -0.205362381286
1.69458679019 2.24447941343 0.144359945668 -2.31485774974 -2.77315617552 1.11288851942 -2.50663349916 -1.64920825742 1.06738066194 0.771494360453 -0.205595735903
1.71044526075 2.24063083253 0.144377692996 -2.3152401228 -2.77392092162 1.11204997411 -2.50515709805 -1.64850119825 1.06838047254 0.770460348761 -0.20582890578
1.72630485971 2.23678197787 0.144395184353 -2.31562290417 -2.77468648437 1.1112124323 -2.50368075535 -1.64779089223 1.06937878998 0.769429139686 -0.206061889184
1.74216558836 2.23293284906 0.144412419211 -2.31600609377 -2.77545286357 1.11037590298 -2.50220447651 -1.64707735084 1.07037561325 0.76840073389 -0.206294685033
1.7580271745 2.22908351201 0.144429771804 -2.31638959804 -2.77621987212 1.10954066899 -2.50072829219 -1.64636146093 1.07137163683 0.767374517039 -0.206526673267
1.77389015868 2.22523383555 0.144446503439 -2.3167736094 -2.77698789482 1.10870620891 -2.49925213205 -1.64564144719 1.07236540082 0.766351760314 -0.206759167841
1.78975428788 2.22138388159 0.144462966108 -2.31715802279 -2.77775672161 1.10787277401 -2.49777607661 -1.64491827254 1.07335773795 0.765331766679 -0.206991391839
1.80561955188 2.21753365187 0.144479170098 -2.31754284383 -2.77852636369 1.10704038715 -2.49630010703 -1.64419190868 1.07434857795 0.764314578422 -0.207223423268
1.82148595451 2.213683146 0.144495114832 -2.31792807236 -2.77929682075 1.10620905716 -2.49482422888 -1.64346236721 1.07533792024 0.763300195936 -0.207455260741
1.83735349704 2.20983236356 0.144510799734 -2.31831370818 -2.7800680924 1.10537879279 -2.49334844774 -1.64272965979 1.07632576439 0.762288619555 -0.207686902784
1.85322218076 2.20598130415 0.144526224279 -2.31869975112 -2.78084017826 1.10454960281 -2.49187276906 -1.64199379787 1.07731210971 0.76127984979 -0.207918348277
1.86909173092 2.20213003414 0.144541762645 -2.31908610565 -2.78161288733 1.10372174787 -2.49039722319 -1.64125564093 1.07829765391 0.760273271893 -0.208148984594
1.88496269445 2.19827842157 0.144556675888 -2.31947296818 -2.7823866124 1.10289475027 -2.48892174128 -1.64051346924 1.07928093075 0.759270158198 -0.208380110305
1.90083481323 2.1944265284 0.144571316733 -2.31986023107 -2.78316113817 1.10206883918 -2.48744640161 -1.6397682166 1.08026277742 0.758269809792 -0.208610957048
1.91670808086 2.19057435656 0.144585695059 -2.32024790015 -2.78393647633 1.10124403721 -2.48597118636 -1.63901985565 1.08124312344 0.757272269481 -0.208841602079
1.93258249862 2.18672190562 0.144599810311 -2.3206359752 -2.78471262643 1.10042035299 -2.48449610107 -1.63826839791 1.08222196837 0.756277537589 -0.209072044135
1.94845806779 2.18286917516 0.144613661927 -2.32102445593 -2.78548958789 1.09959779507 -2.48302115128 -1.63751385501 1.08319931207 0.755285614311 -0.209302281733
1.96433478965 2.17901616474 0.144627249399 -2.32141334209 -2.78626736021 1.09877637205 -2.48154634242 -1.63675623837 1.08417515401 0.754296500054 -0.209532313815
1.98021239072 2.17516294127 0.14464094682 -2.32180253641 -2.78704574884 1.09795632287 -2.48007170483 -1.63599638032 1.08515019453 0.75330958 -0.209761535227
1.99609141667 2.17130937189 0.144654015057 -2.32219223887 -2.78782515376 1.09713721248 -2.47859717058 -1.63523261618 1.08612296242 0.752326126909 -0.209991228979
2.0119716132 2.16745551866 0.144666807526 -2.32258233943 -2.78860535489 1.09631924846 -2.47712281608 -1.63446585094 1.08709429867 0.751345440258 -0.210220635205
2.02785296881 2.16360138369 0.144679333721 -2.32297284418 -2.78938636439 1.09550245321 -2.47564862447 -1.63369605808 1.0880641325 0.750367563472 -0.210449830586
2.0437354886 2.15974696655 0.144691593093 -2.32336375279 -2.79016818161 1.09468683512 -2.47417460126 -1.63292324913 1.08903246379 0.749392496698 -0.210678813785
2.05961917259 2.15589226679 0.144703585154 -2.32375506495 -2.79095080594 1.09387240262 -2.47270075188 -1.63214743543 1.08999929217 0.748420240262 -0.210907583799
2.07550402331 2.15203728395 0.144715309338 -2.32414678028 -2.79173423659 1.09305916399 -2.47122708188 -1.63136862867 1.09096461794 0.7474507941 -0.21113613897
2.0913897622 2.14818208553 0.144727139662 -2.32453879994 -2.7925182759 1.09224733705 -2.46975362171 -1.63058763414 1.09192914305 0.746483543892 -0.211363882084
2.10727694002 2.14432653763 0.144738336856 -2.32493132711 -2.79330333025 1.09143652833 -2.46828030401 -1.62980284167 1.09289139285 0.74551976196 -0.211592080159
2.12316530248 2.14047070253 0.144749255022 -2.32532424961 -2.79408917525 1.09062692439 -2.46680720348 -1.62901512766 1.09385221118 0.744558746662 -0.211819982161
2.13905483935 2.13661458249 0.144759903264 -2.32571757373 -2.79487582348 1.08981854735 -2.46533430422 -1.62822446645 1.09481152708 0.743600541993 -0.21204766411
2.15494555063 2.13275817709 0.144770281088 -2.32611129909 -2.79566327421 1.08901140547 -2.46386161164 -1.62743086935 1.09576934035 0.742645148145 -0.212275124985
2.17083744144 2.12890148584 0.144780387963 -2.32650542526 -2.79645152654 1.08820550685 -2.46238913129 -1.6266343479 1.09672565134 0.741692565017 -0.212502363278
2.18673051177 2.12504450827 0.144790223382 -2.3268999518 -2.79724057963 1.08740085961 -2.46091686863 -1.62583491356 1.09768046028 0.740742792584 -0.212729377646
2.20262448047 2.1211873125 0.144800161194 -2.32729477849 -2.798030233 1.08659766093 -2.45944485448 -1.62503334512 1.09863447049 0.739795217172 -0.212955578521
2.21851990474 2.11732976354 0.144809462105 -2.32769011131 -2.79882089866 1.08579555784 -2.45797302164 -1.62422808617 1.09958620505 0.738851109989 -0.213182216838
2.23441652641 2.1134719239 0.144818480829 -2.32808583615 -2.79961234833 1.08499471639 -2.45650144341 -1.62341998494 1.10053651013 0.737909768519 -0.213408550296
2.25031433656 2.10961379604 0.144827226128 -2.3284819595 -2.80040459504 1.08419515848 -2.45503010469 -1.62260901644 1.10148531428 0.736971237528 -0.213634654598
