this is the FWX joint values,the following info is time,x,y,theta,joint1,joint2,joint3,joint4,joint5,joint6,joint7
0.0 -1.52056390807 0.0381970813358 -3.59955298329 1.17084515131 0.548533973287 1.62361584864 0.368498233161 2.77432063417 -0.0653901530705 1.45207091935
0.109453540374 -1.5201504471 0.0285155041476 -3.60362826737 1.17899571949 0.524288681873 1.63448758314 0.371866744691 2.75203099088 -0.0661927317258 1.44355733072
0.208616974979 -1.51985114925 0.0185675680862 -3.60901417523 1.18976753519 0.498932107102 1.64874887464 0.378307556259 2.7238348812 -0.0667286070244 1.432846017
0.311777068657 -1.51978496717 0.00891077224444 -3.61567798722 1.20309515917 0.475134888074 1.66638059727 0.388910767881 2.69040627583 -0.0666419773974 1.42008728538
0.411206087439 -1.52004304603 0.000248936276414 -3.62298751655 1.21771421784 0.456207025186 1.68589135308 0.403601900324 2.65522676409 -0.0655877790182 1.40638667134
0.509532316833 -1.52059455471 -0.00712231295434 -3.63004004522 1.23181927517 0.443480096295 1.70507425213 0.420743187002 2.62262199814 -0.0635495451707 1.39317783532
0.593181206591 -1.52131917713 -0.0134311407504 -3.63629765103 1.2443344868 0.43580426764 1.72255870075 0.438393714568 2.59476111246 -0.060819496467 1.38125120151
0.670799637507 -1.5221109538 -0.0190331077019 -3.64165512287 1.25504943047 0.431457873712 1.73802051908 0.455367670566 2.57169747107 -0.0577159506682 1.37075435734
0.742631781176 -1.52288624844 -0.0241196575994 -3.64605534139 1.26384986752 0.429296377543 1.75121293173 0.470709780716 2.55329210942 -0.0545676590494 1.36185951598
0.800040564893 -1.52363839005 -0.0289309379792 -3.6497921834 1.27132355153 0.428404329082 1.76286289734 0.484826377844 2.53803826025 -0.0514203758404 1.35407961593
0.850611656489 -1.52435451714 -0.0335582111623 -3.65297553139 1.27769024752 0.428350637266 1.77320722787 0.497748767836 2.52531233895 -0.0483553002414 1.34726468859
0.899704483494 -1.52502955107 -0.038058232734 -3.65569751684 1.28313421842 0.428868655412 1.78244796513 0.509562494016 2.51462122293 -0.0454200746715 1.34128428094
0.949108392293 -1.52566240499 -0.0424674447048 -3.65803317477 1.28780553428 0.429788051206 1.79075151969 0.520368472294 2.5055808545 -0.0426413074833 1.33602737569
0.995545745665 -1.52625400627 -0.0468100886191 -3.6600431773 1.29182553934 0.430996157497 1.79825377117 0.530266675379 2.49789201462 -0.0400321214608 1.33140010146
1.04564834317 -1.52680626361 -0.0511028354114 -3.66177669744 1.29529257961 0.432416001443 1.80506589726 0.53934976245 2.49131998109 -0.0375969891879 1.32732300337
1.08676090751 -1.52732151748 -0.0553574994765 -3.66327383127 1.29828684727 0.433993457232 1.811279429 0.547701077165 2.48567893828 -0.0353348716073 1.3237285808
1.12331354544 -1.52776511371 -0.0594967179012 -3.66444062598 1.3006204367 0.435641229778 1.81653715422 0.554776441456 2.48125630375 -0.0334245132479 1.32085318162
1.16178031583 -1.52817971863 -0.0636131408993 -3.66544795425 1.30263509323 0.437376710424 1.82137969352 0.561316978455 2.47742932798 -0.0316651397417 1.31832087104
1.20321035449 -1.52856737197 -0.0677114659498 -3.66631593181 1.30437104836 0.439179112752 1.82585406438 0.567372563277 2.47411260401 -0.0300489798017 1.31609322835
1.24958298381 -1.52893000143 -0.071795379861 -3.66706153099 1.30586224672 0.441032374219 1.83000040545 0.572987351234 2.47123561639 -0.0285678691085 1.31413698478
1.28914480121 -1.52926940833 -0.0758678020724 -3.66769917546 1.30713753565 0.44292397118 1.83385321176 0.578200479228 2.46873966837 -0.0272136093295 1.31242316967
1.330631225 -1.52958726223 -0.0799310721427 -3.66824119366 1.30822157206 0.444844034099 1.83744229789 0.583046696315 2.46657557 -0.0259781659917 1.31092646434
1.38008556614 -1.52988510268 -0.0839870843602 -3.66869818014 1.30913554502 0.446784714134 1.8407935709 0.587556924199 2.46470183788 -0.0248537922103 1.30962466611
1.42504494921 -1.53016434507 -0.0880373861208 -3.66907928538 1.30989775551 0.448739721856 1.84392965487 0.591758747263 2.46308328174 -0.0238331021458 1.30849824192
1.48226446935 -1.5304143059 -0.0925316783223 -3.66931099683 1.3103611784 0.450823326757 1.84677532369 0.595458921412 2.46189007651 -0.0230082022798 1.30769735116
1.52855865669 -1.53064704623 -0.0970209385426 -3.66947785734 1.31069489942 0.452916459672 1.8494311253 0.598880020483 2.46090630349 -0.0222822461797 1.30704987192
1.56879943527 -1.53086382123 -0.101506470094 -3.66958692502 1.31091303478 0.455014115428 1.85191504077 0.602044897336 2.4601066871 -0.0216473761297 1.30653957398
1.60783363395 -1.53106577657 -0.105989348337 -3.66964432609 1.31102783691 0.457112279356 1.85424288462 0.604974019378 2.45946963306 -0.0210963641007 1.30615221659
1.65224068833 -1.53125395852 -0.110470460108 -3.66965540267 1.31104999008 0.459207736835 1.85642862365 0.607685766917 2.45897659286 -0.0206225792462 1.30587525795
1.70568845023 -1.53142932292 -0.114950538818 -3.66962483105 1.31098884683 0.461297914687 1.85848463745 0.610196686773 2.45861156255 -0.0202199443652 1.30569762209
1.74994755726 -1.53159274358 -0.119430192178 -3.66955671935 1.31085262343 0.463380757119 1.86042193609 0.612521710934 2.45836067533 -0.0198828924458 1.30560950203
1.78746890398 -1.53169451712 -0.123747259354 -3.66935156134 1.31044230742 0.465212177681 1.86174912153 0.613899184902 2.45852796453 -0.0198201759161 1.30585193412
1.82149769797 -1.53178890037 -0.128064159104 -3.66912522051 1.30998962576 0.467037066873 1.86300587186 0.615163250079 2.45875753999 -0.0197969308001 1.30614494901
1.85292400269 -1.53187634065 -0.132381235413 -3.66887960656 1.30949839785 0.468854341395 1.86419751342 0.616321325606 2.4590433935 -0.019810031157 1.30648375537
1.88695786208 -1.53195725145 -0.136698777635 -3.66861642693 1.30897203861 0.470663134412 1.86532886737 0.617380214406 2.45938020553 -0.0198566178344 1.30686406301
1.92455858249 -1.53203201532 -0.141017028189 -3.66833721215 1.30841360904 0.472462760713 1.866404307 0.618346164053 2.4597632523 -0.0199340742043 1.307282022
1.96736073752 -1.53210098643 -0.145336189736 -3.6680433371 1.30782585895 0.474252686324 1.86742780706 0.619224920029 2.46018832859 -0.020040003524 1.30773417143
2.01847130684 -1.53216449295 -0.14965643119 -3.66773603949 1.30721126373 0.476032503341 1.86840298674 0.620021773224 2.46065168169 -0.0201722085287 1.30821739476
2.06428983379 -1.5321725492 -0.15378436754 -3.66733124486 1.30640167446 0.477488458346 1.86884577033 0.619979391468 2.46141128043 -0.0205172222296 1.30893114267
2.10360501052 -1.53217683384 -0.15791395111 -3.66691970221 1.30557858916 0.478932422848 1.86925865205 0.619883455744 2.46219006037 -0.0208760532172 1.30965919189
2.13883915955 -1.53217888898 -0.16204450612 -3.66650416321 1.30474751115 0.480369374434 1.86965409848 0.619754929658 2.46298022294 -0.0212424263481 1.31039530392
2.17108477926 -1.53217879998 -0.1661760988 -3.66608492749 1.30390903971 0.481799155111 1.87003299657 0.619595158311 2.46378093671 -0.0216157371115 1.31113870448
2.20566544063 -1.53217666961 -0.17030876629 -3.66566231351 1.30306381176 0.483221747244 1.87039637231 0.619405756241 2.46459131597 -0.0219953245639 1.31188858738
2.24425630287 -1.53217259363 -0.174442538451 -3.66523661087 1.30221240647 0.484637156627 1.87074516768 0.619188221338 2.46541055953 -0.0223805841997 1.31264422318
2.28901735851 -1.53216666173 -0.178577438412 -3.6648080841 1.30135535294 0.486045410496 1.87108025308 0.618943952926 2.46623793938 -0.0227709594694 1.31340494955
2.34859183986 -1.53209677406 -0.183147094402 -3.66421772007 1.30017462488 0.487228173404 1.87087936458 0.617717960732 2.46748502405 -0.0234332212316 1.31449747531
2.3962941183 -1.53202745802 -0.187718121989 -3.66363163384 1.29900245242 0.488406911119 1.870689674 0.616505183618 2.46872155257 -0.0240835868363 1.31557713814
2.43731540107 -1.53195858494 -0.192290654331 -3.66304899733 1.2978371794 0.489580412197 1.87050797799 0.615300309876 2.4699500941 -0.0247241940672 1.31664614049
2.47917437764 -1.53189014082 -0.196864625271 -3.66246966524 1.29667851523 0.490749020578 1.87033383397 0.614102806378 2.4711709938 -0.025355524494 1.31770488755
2.5282719678 -1.53182209972 -0.201439961324 -3.66189349327 1.29552617128 0.491913017995 1.87016684559 0.612912245378 2.47238463864 -0.0259779202414 1.31875381946
2.59058234637 -1.53175443684 -0.206016595741 -3.66132034688 1.29437987851 0.493072659121 1.87000663978 0.611728221435 2.47359138905 -0.026591700704 1.31979334525
2.68978859363 -1.53162653899 -0.210312767561 -3.66067596378 1.2930911123 0.493708816675 1.86929064445 0.609656967666 2.47503173498 -0.0273703568164 1.32098537912
2.74867203322 -1.53150121105 -0.214610924005 -3.66003941077 1.29181800628 0.494343772285 1.86860080543 0.607624344117 2.47645350624 -0.0281282852303 1.32215645147
2.79527597749 -1.53137834399 -0.218910880987 -3.65941029574 1.29055977622 0.494978054669 1.86793583843 0.605628616987 2.47785764821 -0.028866527654 1.3233077058
2.83526400581 -1.5312578338 -0.223212472527 -3.65878825219 1.28931568911 0.495612126066 1.86729453275 0.603668138233 2.47924504781 -0.0295860532397 1.32444020284
2.88249157375 -1.53113958126 -0.227515548869 -3.65817293737 1.28808505947 0.496246389493 1.86667574682 0.601741341643 2.48061653723 -0.0302877644537 1.32555492728
2.94229883127 -1.53102349175 -0.231819974895 -3.65756403057 1.28686724587 0.496881195199 1.86607840395 0.599846738956 2.48197289761 -0.0309725024225 1.32665279396
3.03469084879 -1.53084867972 -0.235825602891 -3.65689647925 1.28553214324 0.496932248516 1.86494852378 0.597096048738 2.48353408483 -0.0317926158657 1.32786741212
3.09091876247 -1.53067763208 -0.23983409835 -3.65623852896 1.28421624266 0.496985492182 1.86385462279 0.594400909943 2.48507294202 -0.0325869248795 1.32905754862
3.13570936395 -1.53051021845 -0.243845205092 -3.65558975648 1.2829186977 0.497041570613 1.86279517779 0.591759244755 2.48659040004 -0.0333566758405 1.33022445102
3.17431258743 -1.53034631327 -0.247858688752 -3.65494976173 1.28163870821 0.497101051228 1.86176873866 0.58916905882 2.48808734621 -0.0341030360703 1.33136928695
3.20986889893 -1.53018579566 -0.251874334719 -3.65431816649 1.28037551772 0.497164432003 1.86077392494 0.58662843887 2.48956462582 -0.0348270996248 1.33249314952
3.25003967899 -1.5300285493 -0.255891946521 -3.65369461309 1.27912841091 0.497232147934 1.85980942255 0.584135549933 2.49102304401 -0.0355298924566 1.33359706272
3.30364988336 -1.52977108968 -0.260342279435 -3.65288763455 1.27751445384 0.496551288704 1.85804370222 0.580155217803 2.49299356078 -0.0365046209222 1.33502889558
3.34777957295 -1.52951995138 -0.264798991441 -3.65209523932 1.27592966337 0.495876574683 1.85633751163 0.57626725509 2.49493071975 -0.0374395942104 1.33642477456
3.38663670339 -1.52927492266 -0.269261534228 -3.65131677424 1.27437273321 0.495209288338 1.85468827516 0.572468239867 2.49683581662 -0.0383369367727 1.33778666794
3.42402222765 -1.52903579867 -0.273729405355 -3.65055162039 1.27284242552 0.494550553365 1.85309353592 0.568754876049 2.49871010065 -0.0391986292742 1.33911641416
3.46609416197 -1.52880238145 -0.278202143818 -3.64979919157 1.27133756788 0.493901350432 1.85155095178 0.565123992326 2.50055477368 -0.0400265195914 1.34041573032
3.51080465233 -1.52850152894 -0.2823042355 -3.64899771626 1.26973461725 0.492429762407 1.84943203781 0.560536142404 2.50259974175 -0.0409590537635 1.34179335405
3.54957598133 -1.52820744353 -0.286416218966 -3.64821085952 1.26816090378 0.490965247686 1.84737775483 0.55604684827 2.50461162897 -0.0418513138057 1.34313589756
3.58440563539 -1.52791994711 -0.290537431023 -3.64743807693 1.26661533859 0.489509326934 1.84538572439 0.551653134602 2.50659137574 -0.0427052848117 1.34444506648
3.62219995644 -1.52763886499 -0.294667253124 -3.64667884522 1.26509687518 0.488063365068 1.84345365042 0.547352098868 2.508539913 -0.0435228327411 1.34572247151
3.66573918261 -1.52736402612 -0.298805107689 -3.64593266214 1.26360450902 0.48662858402 1.84157931892 0.543140914396 2.51045815824 -0.0443057122384 1.34696963304
3.71399452602 -1.52702227633 -0.302583756971 -3.64514342488 1.2620260345 0.484317975353 1.83915891518 0.537995099103 2.51256451459 -0.0451745049984 1.34827606169
3.75429804591 -1.52668742304 -0.306377144125 -3.64436849558 1.2604761759 0.48201354807 1.83680694061 0.532949915945 2.51463861992 -0.0460037651421 1.34954890914
3.78984153827 -1.52635933193 -0.31018448837 -3.64360744665 1.25895407804 0.479717113796 1.83452127726 0.528002974361 2.51668106647 -0.0467952901562 1.35078960323
3.82550842368 -1.52603786882 -0.314005050289 -3.64285986037 1.25745890549 0.477430334535 1.83229985368 0.523151905954 2.51869246631 -0.0475507832818 1.35199950794
3.86620266834 -1.52572290003 -0.317838129077 -3.64212532956 1.25598984385 0.475154732106 1.83014064752 0.51839437045 2.52067344586 -0.0482718584174 1.35317992504
3.91003868231 -1.5253414308 -0.321335504031 -3.64135233057 1.25444384587 0.471956568178 1.82747045061 0.512724393484 2.52283269616 -0.0490633963488 1.35440440195
3.94735035163 -1.52496679641 -0.324853830526 -3.64059327183 1.2529257284 0.468762331805 1.82487233151 0.507154899543 2.52496037664 -0.0498167917831 1.3555967726
3.98335063132 -1.52459891009 -0.328392205099 -3.63984783727 1.25143485927 0.465574189833 1.82234443796 0.501684125849 2.52705676182 -0.0505336561123 1.3567582098
4.02375072427 -1.52423768231 -0.331949760897 -3.63911571124 1.24997060722 0.462394166239 1.81988493061 0.496310286451 2.52912216928 -0.0512155282682 1.35788984826
4.06672436288 -1.52388302129 -0.335525665877 -3.63839657973 1.24853234419 0.459224148448 1.81749198779 0.49103158011 2.53115695339 -0.0518638773615 1.35899278409
4.11599499555 -1.5234624214 -0.338800910485 -3.63764282915 1.24702484304 0.455093702745 1.81462979467 0.484866026218 2.53336058297 -0.0525696396641 1.36012705788
4.15727738114 -1.52304850675 -0.342104605626 -3.63690279243 1.2455447696 0.450964354783 1.81184397705 0.478800055358 2.53553266972 -0.053238992366 1.36123030981
4.19563834305 -1.52264123841 -0.345435714231 -3.63617625334 1.24409169141 0.446838706912 1.8091329158 0.472832522511 2.53767321032 -0.0538733885463 1.36230349656
4.23912882307 -1.52224057215 -0.348793230131 -3.6354629881 1.24266516094 0.442719223645 1.80649497302 0.466962218963 2.53978226406 -0.0544742263073 1.36334755762
4.29094904362 -1.52184645896 -0.352176177218 -3.63476276695 1.24126471864 0.438608234954 1.80392849862 0.461187881427 2.54185994629 -0.0550428496395 1.36436341338
4.34100351651 -1.5213874178 -0.355303770865 -3.6340316302 1.23980244513 0.433511149533 1.80094244085 0.454559343826 2.54409574073 -0.0556576736468 1.36539935272
4.38370290364 -1.52093491746 -0.358468345829 -3.6333142605 1.23836770573 0.428412938169 1.79803817754 0.448029962096 2.54629898677 -0.0562380671925 1.36640478314
4.42963895719 -1.52048896472 -0.36166871043 -3.63261052468 1.2369602341 0.423316734525 1.79521425283 0.441599159335 2.54846945529 -0.0567853658485 1.36738049385
4.46927087537 -1.52004955872 -0.36490369794 -3.63192027508 1.2355797349 0.41822553438 1.79246916177 0.435266257525 2.55060699776 -0.0573008628448 1.36832727374
4.50463397256 -1.51961669153 -0.368172166716 -3.63124335136 1.23422588745 0.413142196105 1.78980135864 0.42903048761 2.55271153942 -0.0577858086407 1.36924590836
4.54211943886 -1.51912067433 -0.371238694095 -3.63053955556 1.23281829586 0.407063774591 1.78677194594 0.421983716438 2.55496072011 -0.0583073090012 1.3701741539
4.57738350528 -1.51863114245 -0.374351291039 -3.62984993308 1.2314390509 0.400984169276 1.78383092581 0.415037102832 2.55717510651 -0.0587966525088 1.37107181742
4.61514933947 -1.51814814369 -0.377508578411 -3.62917441043 1.2300880056 0.394907139045 1.78097689054 0.408190544433 2.55935431853 -0.0592551001259 1.37193957864
4.65639861254 -1.5176717159 -0.380709197112 -3.62851289343 1.22876497159 0.388836294803 1.77820835496 0.401443801945 2.56149807423 -0.0596838777979 1.37277813017
4.7025379396 -1.51720188759 -0.383951809221 -3.62786526932 1.22746972338 0.382775097262 1.77552376672 0.394796510279 2.56360618248 -0.060084175 1.37358817354
4.74104463205 -1.51675958426 -0.38653124542 -3.62730700533 1.22635319541 0.376902082441 1.7730368662 0.388623026904 2.56546790087 -0.0604434738334 1.37426108685
4.77599927787 -1.51632184161 -0.389149034477 -3.62675909121 1.22525736716 0.371030551921 1.77061655004 0.382521113943 2.56730316566 -0.0607822305615 1.37491243508
4.81465674579 -1.51588870818 -0.391804245235 -3.62622150416 1.22418219305 0.365163092197 1.76826194857 0.376490922794 2.56911171959 -0.06110115167 1.37554258269
4.85779664352 -1.51546022653 -0.394495954808 -3.62569420864 1.22312760202 0.359302206604 1.76597214182 0.370532521005 2.5708933614 -0.0614009278579 1.37615190524
4.90827514572 -1.51503643348 -0.397223249343 -3.62517715745 1.22209349964 0.353450313709 1.76374616488 0.36464589762 2.57264794241 -0.0616822331868 1.37674078733
4.95800864465 -1.51461736038 -0.399985225283 -3.62467029256 1.22107976986 0.347609744956 1.76158301247 0.358830967233 2.57437536331 -0.0619457244237 1.37730962079
5.00543389917 -1.51415052306 -0.402669477711 -3.62414744672 1.22003407817 0.340981802135 1.7592188757 0.352432612147 2.57619666216 -0.0622312905112 1.3778739478
5.04662810856 -1.51368844334 -0.405397604109 -3.62363562382 1.21901043237 0.334361675689 1.75692614713 0.346109217826 2.5779886255 -0.0624985361883 1.37841629544
5.08983109301 -1.51323118182 -0.408168523374 -3.62313479631 1.21800877736 0.327752310715 1.75470378084 0.3398610084 2.57975104854 -0.0627481487384 1.37893704044
5.12833454715 -1.51277879204 -0.410981164166 -3.62264492236 1.21702902946 0.321156546977 1.75255067429 0.333688109913 2.58148378803 -0.0629807978014 1.37943657218
5.17004416061 -1.51233132073 -0.413834465895 -3.62216594711 1.21607107896 0.314577117371 1.75046567486 0.327590556702 2.58318675802 -0.0631971345855 1.37991529019
5.20746544143 -1.5118888081 -0.416727380314 -3.62169780375 1.21513479224 0.308016645363 1.74844758559 0.321568296274 2.58485992607 -0.0633977912166 1.380373602
5.2483942564 -1.51140313362 -0.419588638784 -3.62121849084 1.21417616641 0.30072601504 1.7462867745 0.315033601512 2.58660784003 -0.0636160136868 1.38082067148
5.28559993543 -1.51092253719 -0.422497958201 -3.62075089305 1.21324097084 0.29345368063 1.74420090265 0.308578139498 2.58832353865 -0.0638184710539 1.38124555487
5.31964414717 -1.5104470817 -0.425454105073 -3.62029495712 1.21232909897 0.286202813523 1.74218864592 0.302202063677 2.590006951 -0.0640058196391 1.38164866932
5.35404755623 -1.50997682204 -0.428455860341 -3.61985061553 1.21144041579 0.278976449533 1.74024862627 0.29590542063 2.59165806801 -0.0641786947224 1.38203044235
5.39069078943 -1.50951180537 -0.431502020325 -3.61941778804 1.21057476081 0.271777488673 1.73837941945 0.289688157755 2.59327693723 -0.0643377101198 1.38239130923
5.42545589442 -1.50905207149 -0.434591398405 -3.61899638289 1.20973195052 0.264608693643 1.73657956168 0.283550129157 2.59486365834 -0.0644834579091 1.38273171051
5.46032542167 -1.50862551495 -0.437243970579 -3.61862965328 1.2089984913 0.257905150603 1.73495985035 0.277915410648 2.59626962889 -0.0646217609831 1.3830081377
5.49814842388 -1.50820297635 -0.439933704089 -3.61827193104 1.20828304681 0.25122515782 1.7333961696 0.2723420107 2.59765031676 -0.0647504638619 1.38326845607
5.54032226027 -1.50778449086 -0.442659739556 -3.61792315952 1.20758550379 0.244570726924 1.73188748231 0.266829907895 2.59900579144 -0.0648699458344 1.38351295627
5.57788100088 -1.50737008892 -0.445421229098 -3.61758327539 1.20690573552 0.237943779462 1.73043272885 0.261379022239 2.60033615256 -0.0649805733015 1.38374193176
5.61192496947 -1.50695979647 -0.448217336467 -3.61725220927 1.20624360328 0.231346148261 1.72903083095 0.255989219421 2.60164152702 -0.0650826999644 1.3839556774
