this is the FWX joint values,the following info is time,x,y,theta,joint1,joint2,joint3,joint4,joint5,joint6,joint7
0.0 -0.721887826597 2.49552204336 -0.703382072492 -1.82802564384 0.203638235991 -1.91177934623 -0.137422647822 -2.3807078778 1.820104545 3.05044569111
0.237045678617 -0.722046220654 2.4910428544 -0.703618208705 -1.82755337142 0.202072443308 -1.91238914757 -0.135867856754 -2.38118693444 1.81839204437 3.05068820335
0.407228051748 -0.722204600074 2.48656267864 -0.70385290082 -1.82708398719 0.200508750242 -1.91299464301 -0.134309824582 -2.38166287201 1.81668088684 3.05092963093
0.51488953209 -0.722323338934 2.48320191215 -0.704027710574 -1.82673436768 0.199337360247 -1.91344565253 -0.133139446598 -2.38201761349 1.81539818417 3.05110960927
0.612372724502 -0.722442085684 2.47984050233 -0.704201879531 -1.82638602976 0.198167381167 -1.91389403782 -0.13196650974 -2.38237040864 1.81411670875 3.05128942017
0.702412051942 -0.72256084487 2.47647852363 -0.704375196119 -1.82603939659 0.196998523771 -1.91434004096 -0.130791935734 -2.38272150214 1.81283586738 3.05146848517
0.78640695208 -0.722679593084 2.47311600065 -0.704547697279 -1.82569439427 0.195830823666 -1.91478360138 -0.129615583494 -2.38307084034 1.81155577024 3.05164694539
0.865543125523 -0.722798268139 2.46975308785 -0.704719245381 -1.82535129806 0.194664062154 -1.91522484261 -0.128438086405 -2.38341855646 1.81027605434 3.05182453909
0.94085305984 -0.722916967314 2.46638952365 -0.704890115429 -1.82500955797 0.19349864972 -1.91566348688 -0.127258216232 -2.38376436831 1.80899744992 3.05200184001
1.01251958016 -0.723035666227 2.4630254102 -0.705060146943 -1.82466949494 0.192334356245 -1.91609970655 -0.126076680373 -2.38410845431 1.80771952101 3.05217846314
1.08140064131 -0.723154351783 2.45966076212 -0.705229360255 -1.82433106832 0.191171198964 -1.91653346541 -0.124893406112 -2.38445078391 1.80644232675 3.05235448643
1.15029008847 -0.723272975675 2.4562957046 -0.705397637796 -1.82399451323 0.190008995161 -1.9169648749 -0.123708926399 -2.38479147693 1.80516555946 3.05252968453
1.22199035087 -0.723391620189 2.4529300072 -0.705565233364 -1.8236593221 0.188848114777 -1.9173936661 -0.122522126457 -2.38513026141 1.80388988647 3.0527045873
1.29736012509 -0.723510261897 2.44956377052 -0.705731987796 -1.82332581323 0.187688332524 -1.91782001538 -0.121333698701 -2.38546731969 1.80261488073 3.05287881883
1.37658686313 -0.723628887925 2.44619700903 -0.705897921547 -1.82299394573 0.186529665451 -1.91824388604 -0.120143571641 -2.38580262064 1.80134060036 3.05305245603
1.46069767674 -0.723747451582 2.44282984572 -0.706062917957 -1.82266395291 0.1853719348 -1.9186653931 -0.118952268005 -2.38613628747 1.80006674296 3.05322527843
1.5527056032 -0.723866032549 2.4394620542 -0.706227228641 -1.82233533154 0.184215501719 -1.91908426117 -0.11775869673 -2.38646804189 1.79879396265 3.05339780334
1.6533491228 -0.723984608293 2.43609373352 -0.706390695776 -1.82200839727 0.183060145759 -1.9195006704 -0.116563535088 -2.38679806998 1.7975218414 3.05356966409
1.76677410087 -0.724103166264 2.43272489792 -0.706553339755 -1.82168310932 0.18190588359 -1.91991458391 -0.115366713529 -2.38712634032 1.79625043581 3.05374093593
1.89978936277 -0.724221661226 2.42935566823 -0.706715045013 -1.8213596988 0.180752540598 -1.92032611987 -0.114168743797 -2.38745297905 1.79497944931 3.05391140393
2.07029486918 -0.72434017034 2.42598582222 -0.706876061009 -1.82103766681 0.179600469205 -1.92073499665 -0.112968558503 -2.38777770183 1.79370952282 3.05408157292
2.38265054693 -0.724434445278 2.42261142381 -0.707036190621 -1.82071740759 0.178550188606 -1.92114574454 -0.11168470526 -2.38811816906 1.79241735895 3.0541
2.55315345365 -0.724525772513 2.41923624015 -0.707195479611 -1.8203988296 0.177512694463 -1.92155474731 -0.110390178365 -2.38845909281 1.79112286562 3.0541
2.72678026295 -0.724647600632 2.41473540877 -0.707406909105 -1.81997597062 0.176130405848 -1.92209692668 -0.108662527894 -2.38891125734 1.78939781315 3.0541
2.86897740414 -0.72476950235 2.41023380813 -0.707617060352 -1.81955566812 0.174749465306 -1.92263491013 -0.106932771469 -2.38936033614 1.78767398765 3.0541
2.99346613066 -0.724891481108 2.40573144273 -0.707825932632 -1.81913792356 0.173369842303 -1.92316868841 -0.105200939779 -2.3898063282 1.78595139354 3.0541
3.10595297729 -0.725013539984 2.40122831708 -0.70803352512 -1.81872273859 0.171991508267 -1.92369825248 -0.103467062399 -2.39024923299 1.78423003431 3.0541
3.20985016121 -0.725135670154 2.39672443407 -0.708239835329 -1.81831011817 0.170614490041 -1.92422359738 -0.101731132989 -2.39068906089 1.78250989377 3.0541
3.30677313639 -0.72525787504 2.39221979831 -0.708444862581 -1.81790006367 0.169238757413 -1.92474471406 -0.0999931819014 -2.3911258111 1.78079097607 3.0541
3.39809413007 -0.725380158052 2.38771441437 -0.708648606189 -1.81749257645 0.167864280344 -1.92526159347 -0.0982532393231 -2.39155948297 1.7790732853 3.0541
3.48499729097 -0.725502510135 2.38320828518 -0.708851063634 -1.81708766156 0.166491086965 -1.92577423097 -0.0965112979726 -2.39199008697 1.77735680466 3.0541
3.56687745801 -0.725624934694 2.37870141538 -0.709052234286 -1.81668532026 0.165119147385 -1.92628261768 -0.0947673878742 -2.39241762255 1.7756415381 3.0541
3.64557553888 -0.725747435118 2.37419380962 -0.7092521175 -1.81628555383 0.163748431892 -1.92678674471 -0.0930215388771 -2.39284208927 1.77392748946 3.0541
3.72121514533 -0.725870002471 2.36968547087 -0.70945071082 -1.81588836719 0.162378968124 -1.92728660757 -0.0912737437091 -2.39326349732 1.77221464217 3.0541
3.79464206187 -0.725992640138 2.36517640383 -0.709648013656 -1.81549376152 0.161010726512 -1.92778219753 -0.0895240320614 -2.39368184639 1.77050299995 3.0541
3.86592093891 -0.72611535149 2.3606666132 -0.709844025409 -1.81510173801 0.159643677664 -1.9282735059 -0.0877724334559 -2.39409713622 1.76879256641 3.0541
3.93511456892 -0.726238127708 2.35615610199 -0.710038743679 -1.81471230147 0.158277848732 -1.9287605283 -0.086018940629 -2.39450937674 1.76708332521 3.0541
4.00295557745 -0.726360972158 2.35164487496 -0.710232167919 -1.81432545299 0.156913210472 -1.9292432562 -0.084263582941 -2.39491856783 1.76537527984 3.0541
4.06947032877 -0.726483888187 2.34713293689 -0.710424297573 -1.81394119368 0.155549733814 -1.92972168107 -0.0825063895797 -2.39532470942 1.76366843369 3.0541
4.13468471185 -0.726606867098 2.34262029079 -0.710615130296 -1.81355952823 0.154187445423 -1.93019579867 -0.0807473533045 -2.39572781118 1.76196277065 3.0541
4.19862407557 -0.726729912234 2.33810694149 -0.710804665583 -1.81318045766 0.152826316385 -1.93066560062 -0.0789865031383 -2.39612787314 1.76025829397 3.0541
4.26131327909 -0.726853026922 2.33359289382 -0.710992902917 -1.81280398299 0.151466317942 -1.93113107859 -0.0772238679451 -2.39652489545 1.75855500685 3.0541
4.32277672432 -0.72697620258 2.32907815083 -0.711179840008 -1.81243010881 0.150107476298 -1.93159222845 -0.0754594404946 -2.39691888746 1.75685289337 3.0541
4.38303831263 -0.727099442531 2.32456271741 -0.71136547639 -1.81205883605 0.148749762848 -1.93204904201 -0.0736932494877 -2.3973098494 1.7551519566 3.0541
4.44212147374 -0.727222750079 2.32004659844 -0.711549811587 -1.81169016565 0.14739314916 -1.9325015111 -0.0719253234552 -2.39769778155 1.75345219951 3.0541
4.50062849895 -0.72734611676 2.31552979701 -0.711732843359 -1.81132410211 0.146037660966 -1.93294963174 -0.0701556551941 -2.39808269301 1.7517536064 3.0541
4.55856493334 -0.727469545874 2.31101231804 -0.711914571281 -1.81096064626 0.144683269977 -1.9333933959 -0.068384273079 -2.39846458413 1.75005618013 3.0541
4.61593627876 -0.727593040704 2.30649416646 -0.712094994914 -1.810599799 0.143329948084 -1.93383279558 -0.0666112053077 -2.39884345537 1.74835992348 3.0541
4.67274800826 -0.7277165929 2.30197534542 -0.712274112069 -1.81024156469 0.141977720555 -1.93426782693 -0.0648364447087 -2.39921931552 1.74666482096 3.0541
4.72900551928 -0.727840205739 2.29745585987 -0.712451922356 -1.80988594411 0.140626559421 -1.93469848211 -0.0630600193259 -2.39959216509 1.74497087521 3.0541
4.78471415165 -0.727963882483 2.2929357148 -0.712628425375 -1.80953293808 0.139276436883 -1.93512475327 -0.0612819570361 -2.39996200467 1.74327808884 3.0541
4.83987922358 -0.728087614895 2.28841491338 -0.712803618985 -1.80918255086 0.137927377756 -1.9355466367 -0.0595022506972 -2.40032884275 1.74158644655 3.0541
4.89450597769 -0.72821140623 2.28389346062 -0.712977502833 -1.80883478316 0.136579354382 -1.93596412473 -0.0577209280296 -2.40069267998 1.7398959508 3.0541
4.94859959896 -0.728335259727 2.27937136154 -0.713150076553 -1.80848963572 0.135232339277 -1.9363772097 -0.0559380165858 -2.40105351707 1.73820660401 3.0541
5.00216526161 -0.728459167262 2.27484861935 -0.713321338053 -1.80814711272 0.133886356806 -1.93678588801 -0.0541535092588 -2.4014113622 1.73651839107 3.0541
5.05520804979 -0.728583132067 2.27032523911 -0.713491287013 -1.8078072148 0.132541379622 -1.93719015217 -0.0523674334465 -2.40176621615 1.73483131427 3.0541
5.10773301168 -0.728707157357 2.26580122588 -0.713659923103 -1.80746994262 0.131197380548 -1.93758999468 -0.0505798163826 -2.40211807975 1.73314537585 3.0541
5.15974516666 -0.728831235122 2.2612765829 -0.713827244275 -1.80713530028 0.129854383505 -1.9379854121 -0.0487906509981 -2.40246696087 1.73146056089 3.0541
5.21124945485 -0.72895536857 2.25675131527 -0.713993250244 -1.80680328834 0.128512361453 -1.93837639708 -0.0469999643725 -2.40281286038 1.72977687151 3.0541
5.26225078401 -0.729079560891 2.2522254281 -0.714157940713 -1.8064739074 0.127171287524 -1.93876294231 -0.0452077834168 -2.40315577923 1.72809430977 3.0541
5.31275402588 -0.729203804187 2.24769892465 -0.714321313677 -1.80614716147 0.1258311852 -1.93914504447 -0.0434141011063 -2.40349572498 1.72641286095 3.0541
5.36276398377 -0.729328101643 2.24317181007 -0.714483368883 -1.80582305106 0.124492027741 -1.9395226964 -0.0416189442054 -2.40383269859 1.72473252701 3.0541
5.41228542501 -0.729452456425 2.23864408951 -0.714644106069 -1.80550157669 0.123153788581 -1.93989589095 -0.0398223393103 -2.4041667011 1.72305330981 3.0541
5.46083755641 -0.729576860745 2.23411576625 -0.714803523269 -1.80518274229 0.12181649077 -1.94026462493 -0.0380242794405 -2.40449773976 1.72137519487 3.0541
5.50939609705 -0.729701317763 2.22958684549 -0.714961620264 -1.8048665483 0.120480107872 -1.94062889135 -0.0362247910431 -2.40482581562 1.71969818395 3.0541
5.55796098931 -0.729825830623 2.22505733241 -0.715118396822 -1.80455299518 0.119144613613 -1.94098868323 -0.0344239004072 -2.40515092977 1.71802227877 3.0541
5.60653219357 -0.729950391645 2.22052723034 -0.715273851018 -1.80424208679 0.117810030616 -1.94134399753 -0.0326216006002 -2.40547308918 1.71634746502 3.0541
5.65510965945 -0.730075003963 2.21599654448 -0.715427982663 -1.8039338235 0.116476332742 -1.94169482742 -0.0308179177562 -2.40579229495 1.71467374433 3.0541
5.70369332571 -0.730199670699 2.21146528008 -0.715580791555 -1.80362820572 0.115143494007 -1.94204116608 -0.0290128778579 -2.40610854825 1.71300111826 3.0541
5.75228315996 -0.730324384281 2.20693344047 -0.715732275809 -1.80332523721 0.113811536612 -1.94238301061 -0.0272064740253 -2.40642185572 1.71132957268 3.0541
5.80087910818 -0.730449147819 2.20240103093 -0.715882435264 -1.8030249183 0.112480434709 -1.94272035435 -0.0253987320838 -2.40673221853 1.70965910907 3.0541
5.84948110917 -0.730573964411 2.19786805669 -0.71603126975 -1.80272724933 0.111150162595 -1.94305319066 -0.0235896777168 -2.40703963789 1.70798972884 3.0541
5.89808912691 -0.730698826587 2.19333452115 -0.716178777416 -1.80243223399 0.10982074207 -1.94338151678 -0.0217793040852 -2.40734412014 1.70632141807 3.0541
5.9467031074 -0.730823737438 2.18880042959 -0.716324958133 -1.80213987256 0.108492147558 -1.94370532619 -0.0199676367237 -2.40764566649 1.70465417808 3.0541
5.99532299302 -0.730948700037 2.18426578731 -0.716469811755 -1.80185016532 0.107164353638 -1.94402461245 -0.0181547010114 -2.40794427818 1.70298801015 3.0541
6.04394874417 -0.731073707017 2.17973059772 -0.716613336472 -1.80156311588 0.105837381705 -1.94433937291 -0.0163404901631 -2.40823996125 1.70132290053 3.0541
6.09258031043 -0.731198761447 2.17519486613 -0.716755532177 -1.80127872447 0.104511206453 -1.94464960124 -0.01452502942 -2.40853271694 1.69965885042 3.0541
6.14219524003 -0.731323866373 2.17065859786 -0.716896398758 -1.80099699131 0.103185802744 -1.94495529116 -0.0127083438611 -2.40882254653 1.69799586096 3.0541
6.19231220688 -0.731449014536 2.16612179636 -0.717035934433 -1.80071791996 0.101861191562 -1.94525644015 -0.0108904267616 -2.40910945572 1.6963339186 3.0541
6.24293623756 -0.731574208976 2.16158446698 -0.717174139126 -1.80044151057 0.100537347882 -1.94555304208 -0.00907130306343 -2.40939344578 1.69467302438 3.0541
6.29407239462 -0.73169945272 2.15704661506 -0.71731101275 -1.80016776333 0.0992142468217 -1.94584509079 -0.00725099756313 -2.40967451803 1.69301317935 3.0541
6.34572581987 -0.731824738606 2.15250824408 -0.717446553557 -1.79989668171 0.0978919089776 -1.94613258394 -0.00542950358767 -2.40995267784 1.69135437011 3.0541
6.3979016839 -0.731950069654 2.14796935941 -0.717580761496 -1.79962826583 0.0965703095855 -1.94641551553 -0.00360684579157 -2.41022792649 1.68969659762 3.0541
6.4506052113 -0.732075448866 2.14342996644 -0.717713636506 -1.79936251582 0.0952494240219 -1.94669387961 -0.00178304868794 -2.41050026531 1.68803986277 3.0541
6.50384169149 -0.73220086918 2.13889006865 -0.71784517687 -1.79909943509 0.0939292724952 -1.94696767394 4.18943395062e-05 -2.41076969935 1.68638415236 3.0541
6.55761644991 -0.732326333592 2.13434967145 -0.717975382563 -1.7988390237 0.0926098304971 -1.94723689272 0.00186795891897 -2.4110362299 1.68472946724 3.0541
6.61193486598 -0.732451845082 2.12980878024 -0.718104253549 -1.79858128173 0.0912910736585 -1.94750153014 0.00369512081856 -2.41129985829 1.68307580818 3.0541
6.66680239474 -0.732577396686 2.12526739856 -0.718231788141 -1.79832621254 0.0899730217999 -1.94776158412 0.00552338659282 -2.41156058924 1.68142316218 3.0541
6.72222451646 -0.732702991377 2.12072553183 -0.718357986339 -1.79807381615 0.0886556506601 -1.94801704901 0.00735273214602 -2.41181842404 1.67977152996 3.0541
6.76421090881 -0.732797218597 2.11731879609 -0.718451611958 -1.79788656491 0.0876680657342 -1.94820523967 0.00872543979283 -2.41200971156 1.67853352103 3.0541
6.80620060659 -0.732891467291 2.11391179225 -0.718544484916 -1.79770081899 0.0866808642662 -1.94839084518 0.0100987487965 -2.41219937312 1.67729607456 3.0541
6.8481935774 -0.732985739796 2.11050452279 -0.718636605347 -1.79751657813 0.0856940314787 -1.94857386294 0.0114726456655 -2.412387409 1.67605919209 3.0541
6.89018979963 -0.733080035981 2.10709698974 -0.718727973022 -1.79733384278 0.0847075633427 -1.94875429113 0.0128471246279 -2.41257382016 1.67482287199 3.0541
6.93218923728 -0.733174358366 2.10368919561 -0.718818588118 -1.79715261259 0.0837214442559 -1.94893212705 0.0142221716941 -2.41275860682 1.67358711608 3.0541
6.97419187955 -0.733268701732 2.10028114153 -0.718908449648 -1.79697288953 0.082735692374 -1.94910737065 0.0155977969736 -2.41294177123 1.67235191621 3.0541
7.01619769402 -0.733363068393 2.09687282997 -0.718997557755 -1.79679467332 0.0817502930779 -1.94928001937 0.016973987131 -2.41312331369 1.67111727385 3.0541
7.05820665551 -0.733457458226 2.09346426299 -0.719085912223 -1.79661796438 0.0807652423457 -1.94945007148 0.0183507364557 -2.41330323512 1.66988318736 3.0541
7.10021873519 -0.733551873528 2.09005544306 -0.71917351319 -1.79644276245 0.0797805256666 -1.94961752445 0.019728031717 -2.41348153583 1.66864965819 3.0541
7.14223391866 -0.733646309344 2.08664637136 -0.719260359726 -1.79626906937 0.0787961599953 -1.94978237817 0.0211058823136 -2.4136582178 1.66741667863 3.0541
7.18425217713 -0.733740767968 2.08323705039 -0.719346451987 -1.79609688485 0.0778121308628 -1.94994463017 0.0224842750598 -2.41383328134 1.66618425008 3.0541
7.22627347818 -0.733835249281 2.07982748219 -0.719431789764 -1.7959262093 0.0768284342598 -1.95010427877 0.0238632043103 -2.41400672732 1.66495237092 3.0541
7.26829779661 -0.733929755561 2.07641766925 -0.719516373208 -1.79575704241 0.0758450558242 -1.95026132153 0.0252426569831 -2.41417855606 1.66372104254 3.0541
7.31032511802 -0.734024281916 2.07300761277 -0.719600201397 -1.79558938603 0.0748620122424 -1.95041575838 0.0266226423678 -2.41434876935 1.66249025734 3.0541
7.35235541 -0.734118830617 2.06959731525 -0.719683274495 -1.79542323984 0.073879289194 -1.95056758693 0.0280031474278 -2.41451736751 1.66126001667 3.0541
7.39438864374 -0.734213401552 2.06618677874 -0.719765592306 -1.79525860422 0.0728968826849 -1.95071680557 0.0293841665849 -2.41468435134 1.66003031893 3.0541
7.43642479765 -0.73430799698 2.06277600574 -0.719847154988 -1.79509547885 0.07191477849 -1.95086341191 0.030765686897 -2.41484972119 1.65880116544 3.0541
7.47846384651 -0.734402612068 2.05936499746 -0.719927961628 -1.79493386557 0.0709329930366 -1.95100740596 0.0321477175502 -2.41501347864 1.65757254872 3.0541
7.52050576872 -0.734497249067 2.05595375641 -0.720008012401 -1.79477376402 0.0699515121509 -1.95114878538 0.0335302456557 -2.41517562404 1.65634447008 3.0541
7.56255053188 -0.734591907873 2.05254228465 -0.720087307119 -1.79461517459 0.068970331842 -1.95128754865 0.0349132656925 -2.41533615811 1.65511692791 3.0541
7.60459810718 -0.734686590724 2.04913058468 -0.720165845951 -1.79445809693 0.0679894380251 -1.95142369342 0.0362967648619 -2.41549508122 1.65388992349 3.0541
7.64664848022 -0.734781292845 2.04571865774 -0.72024362799 -1.79430253285 0.0670088468787 -1.95155721978 0.0376807522525 -2.41565239474 1.65266344946 3.0541
7.68870161859 -0.73487601647 2.04230650632 -0.720320653423 -1.79414848198 0.0660285443552 -1.95168812546 0.0390652151081 -2.41580809904 1.65143750708 3.0541
7.73075749708 -0.734970761499 2.0388941325 -0.720396922067 -1.79399594469 0.0650485264764 -1.95181640898 0.0404501479726 -2.41596219478 1.65021209476 3.0541
7.7728160905 -0.735065530151 2.0354815388 -0.720472434105 -1.79384492062 0.0640687792895 -1.95194206809 0.0418355381838 -2.41611468231 1.64898721372 3.0541
7.81487737363 -0.735160317713 2.03206872645 -0.720547188636 -1.79369541156 0.0630893187142 -1.95206510292 0.0432213947242 -2.41626556285 1.64776285672 3.0541
7.85694132488 -0.735255126393 2.02865569796 -0.720621185853 -1.79354741712 0.0621101308524 -1.95218551128 0.0446077049886 -2.41641483673 1.64653902498 3.0541
7.89900791183 -0.735349956104 2.02524245543 -0.720694425587 -1.79340093765 0.0611312117123 -1.95230329175 0.0459944635649 -2.41656250456 1.6453157169 3.0541
7.94107710569 -0.735444809041 2.02182900136 -0.720766908026 -1.79325597277 0.0601525474778 -1.95241844214 0.047381657932 -2.4167085667 1.6440929337 3.0541
7.98314888844 -0.735539680548 2.018415337 -0.720838632278 -1.79311252427 0.059174153829 -1.95253096266 0.0487692969797 -2.41685302417 1.64287066823 3.0541
8.02522323488 -0.735634572818 2.01500146488 -0.720909598544 -1.79297059174 0.0581960169813 -1.95264085115 0.0501573682264 -2.4169958773 1.64164892167 3.0541
8.06730011621 -0.735729485766 2.01158738709 -0.720979806664 -1.7928301755 0.0572181329527 -1.95274810629 0.0515458663221 -2.41713712665 1.64042769244 3.0541
8.10937950362 -0.735824421571 2.00817310615 -0.721049256836 -1.79269127515 0.0562404880481 -1.95285272596 0.0529347788752 -2.41727677255 1.63920698172 3.0541
8.15146137551 -0.735919375633 2.00475862331 -0.721117948172 -1.79255389248 0.0552630977055 -1.9529547104 0.0543241146796 -2.41741481583 1.63798678247 3.0541
8.19354570667 -0.736014350126 2.00134394111 -0.721185880885 -1.79241802706 0.0542859482566 -1.95305405754 0.0557138613801 -2.41755125685 1.63676709584 3.0541
8.2356324683 -0.73610934497 1.99792906165 -0.72125305482 -1.79228367919 0.0533090357337 -1.95315076612 0.0571040136921 -2.41768609606 1.63554792028 3.0541
